r/R,f_y [N/m],V_y [N],M_z [Nm],f_z [N/m],V_z [N],M_y [Nm],m_x [Nm/m],T [Nm]
0.0,10.620639,104.5365003231393,-49.06622758617101,-9.301514,-26.32600354687449,10.677891446192772,0.032946,0.21088492694068972
0.0056,11.495605,104.44754726451309,-48.22567933408053,-10.067805,-26.248098810041384,10.466434780713094,0.035661,0.2106089848551725
0.01702857142857143,13.989669,104.34504373488,-47.385901133591936,-11.727456,-26.160436767177934,10.255644036239755,0.005563,0.210443179084138
0.028457142857142858,15.775018,104.22532811102896,-46.54701671386412,-12.766638,-26.061919831862074,10.045602116456582,0.011279,0.21037543939862077
0.03988571428571429,17.594009,104.09111558312276,-45.70915361067495,-13.556451,-25.956046552518625,9.836382268212645,0.028044,0.21021727958068973
0.051314285714285715,19.577823,103.94160791124413,-44.87243164969623,-14.239294,-25.844250149180695,9.628037902444156,0.033902,0.2099681284965518
0.06274285714285714,21.825791,103.77507972031448,-44.0369808067533,-15.099266,-25.726248437511728,9.42061780054237,0.043112,0.20965837287724146
0.07417142857142858,24.180676,103.59003853718069,-43.202944000079015,-15.954775,-25.60134694295173,9.214174672087982,0.050955,0.20928002891586214
0.08560000000000001,26.723525,103.38529833012414,-42.37047492103755,-16.981406,-25.46887535150897,9.008766715935364,0.064458,0.2088158298703449
0.09702857142857142,29.308417,103.15993399512828,-41.5397357521266,-17.905596,-25.328557423464833,8.804455938043194,0.077695,0.20824408070068973
0.10845714285714286,31.968669,102.91347332923036,-40.71089429590891,-18.802618,-25.180914455155868,8.601303358735528,0.09221,0.20756071107310353
0.11988571428571429,34.787228,102.64497650764139,-39.88412403422019,-19.673218,-25.026161989257936,8.3993670347191,0.105646,0.20676492059586216
0.13131428571428572,37.660624,102.3535862504938,-39.05960567697506,-20.563676,-24.86432642663173,8.198704049587054,0.117081,0.2058690972413794
0.14274285714285714,40.562803,102.0389662323807,-38.23752473485084,-21.313549,-24.695893339597248,7.999369427741089,0.122591,0.20490511992827595
0.15417142857142857,43.525132,101.70075875864278,-37.41806950992142,-22.090853,-24.521317841346214,7.801414410080908,0.123588,0.20391497101241388
0.1656,46.416921,101.33900561857656,-36.601429574853874,-22.693928,-24.341190363558628,7.604886032252629,0.11209,0.2029670578427587
0.17702857142857145,49.364099,100.95376775054898,-35.7877940891375,-23.515217,-24.15533399553104,7.409829666692483,0.098177,0.20212134946758628
0.18845714285714288,52.445548,100.54428232896001,-34.97735503530047,-24.529713,-23.962093973627592,7.216298052957218,0.089075,0.20136820900965524
0.19988571428571428,55.393681,100.11054551273381,-34.170307479457186,-25.388613,-23.76131902381242,7.024351194611652,0.07794,0.20069646316137937
0.21131428571428573,58.510386,99.6524154998069,-33.366847073508815,-26.357614,-23.553192130113107,6.834048967680829,0.083224,0.20004825043862076
0.22274285714285716,61.38863,99.17017338855725,-32.567168909097134,-27.223657,-23.337684562891038,6.645450627768001,0.096757,0.199324354444138
0.2341714285714286,64.234597,98.66490810589242,-31.771462567527735,-28.086187,-23.11522455585104,6.458613823643516,0.120928,0.1984488103613794
0.2456,66.96031,98.1372331420138,-30.97991078286719,-28.856573,-22.886196848044143,6.273592934245229,0.145603,0.1973768042979311
0.25702857142857144,69.855102,97.58695211940415,-30.192694611526093,-29.69619,-22.650693597136556,6.090440420399509,0.180504,0.19606517945379318
0.2684571428571429,72.780978,97.01325996867311,-29.409999137803563,-30.521817,-22.408492620016556,5.909209265904035,0.21117,0.19448983961379318
0.2798857142857143,75.883556,96.41532096019863,-28.632016045405507,-31.420221,-22.159357471315868,5.729954299191863,0.241223,0.19267028376827594
0.2913142857142857,79.228172,95.79145089282207,-27.85894715337322,-32.314082,-21.903013709180694,5.552732403519686,0.268045,0.1906219727503449
0.30274285714285715,82.630208,95.14044532581518,-27.09100589906488,-33.059748,-21.640075656380695,5.3775990951197175,0.280712,0.18841483425103456
0.3141714285714286,86.201776,94.46139144258207,-26.32841423559364,-33.898948,-21.37076316322759,5.204606535122506,0.292504,0.1861093199668966
0.32560000000000006,90.033829,93.75255968509241,-25.571404743885644,-34.739452,-21.09469478474483,5.033807534603489,0.302607,0.18371574248275868
0.33702857142857146,93.641101,93.01380644939586,-24.820217538853687,-35.353715,-20.812775233059313,4.865252800021534,0.301423,0.1812862921655173
0.34845714285714285,97.338202,92.24567452174344,-24.075091129871836,-36.04662,-20.52559816152828,4.6989870113062,0.300396,0.17886573464275868
0.35988571428571425,101.283662,91.44680368667585,-23.336267314070803,-36.7982,-20.23261127170759,4.53505468205473,0.302771,0.17643975537103454
0.3713142857142857,105.259423,90.61607315445517,-22.6039978673553,-37.4751,-19.933878936811038,4.373502288333295,0.305248,0.1739942610206897
0.38274285714285716,109.066477,89.75403960355861,-21.878536834524446,-38.016045,-19.630248345335175,4.214372639844001,0.30215,0.17155126437517246
0.3941714285714286,113.073579,88.86057697832275,-21.1601365283827,-38.756681,-19.321463146692416,4.057706169898135,0.303934,0.1691135527282759
0.4056,117.181474,87.93447527549793,-20.44905463545561,-40.238116,-19.00374062524138,3.9035595572099155,0.316085,0.16661979355034487
0.41702857142857147,121.474563,86.9745842356469,-19.745558335408028,-40.712499,-18.678151668910346,3.752000387651645,0.328629,0.16402670937931038
0.4284571428571429,125.558658,85.98099958401104,-19.049919049314067,-41.203634,-18.348679332595864,3.603075919789035,0.334426,0.16135985644137935
0.4398857142857144,129.450071,84.95533688916414,-18.362401315306094,-41.706286,-18.015209916430347,3.4568178493750206,0.33902,0.1586512101848276
0.4513142857142857,133.411639,83.89808896315036,-17.683261191464233,-42.180021,-17.677813404413797,3.3132580479907703,0.342508,0.15591005756689658
0.4627428571428572,137.258379,82.80943548385656,-17.01275203106772,-42.591418,-17.33685683044966,3.1724266295013055,0.350167,0.15312407094620692
0.4741714285714286,141.116282,81.68979339906208,-16.351124787726214,-43.102621,-16.992189495657936,3.0343528376572646,0.350574,0.1503056423172414
0.48560000000000003,145.016015,80.53894956726622,-15.69862959532647,-43.523104,-16.643774855520004,2.8990666693151477,0.357059,0.14745949358896554
0.4970285714285715,148.785907,79.3572579747807,-15.055516021267698,-43.901896,-16.292145476209658,2.7665961262981495,0.363592,0.14456098556689656
0.5084571428571429,152.575379,78.14516209895173,-14.42203042549528,-44.269187,-15.937515299619314,2.6369662079225393,0.366801,0.14162329454896552
0.5198857142857144,156.729327,76.9011172400607,-13.79842359714692,-44.910469,-15.578828572866211,2.510205299326446,0.377767,0.13862859070344827
0.5313142857142857,160.716513,75.62432817876415,-13.184955736676171,-45.161579,-15.216552583944832,2.386344152494362,0.381784,0.13557362419862068
0.5427428571428572,165.134452,74.3137331250538,-12.581894513556263,-45.925269,-14.850194999437246,2.2654136201452,0.396134,0.13244478435310345
0.5541714285714285,169.041968,72.96965251716415,-11.98951057902839,-46.126234,-14.47995750599173,2.1474457239992266,0.396348,0.1292573670951724
0.5656,173.728296,71.59100687602759,-11.408077637248326,-46.858903,-14.10596487220966,2.032471172751178,0.412259,0.1260050939751724
0.5770285714285714,177.729386,70.17741984056276,-10.837875247861323,-47.075045,-13.728156055150349,1.9205204187867893,0.409909,0.12269827757793103
0.5884571428571429,182.459899,68.72871369565242,-10.279185199045319,-47.717454,-13.346894086758624,1.811622699871194,0.424917,0.11934054983172414
0.5998857142857144,186.27225,67.24564756257104,-9.732286940522588,-47.955918,-12.962089186411038,1.705806154733866,0.419235,0.11594531227034482
0.6113142857142858,190.988529,65.72827869144828,-9.197456638513318,-48.532175,-12.574007422013796,1.6030982130646705,0.436144,0.11250491894068965
0.6227428571428572,195.148588,64.17520857672828,-8.67497585385952,-48.83861,-12.182375409517244,1.5035263339795055,0.432454,0.1090113578813793
0.6341714285714286,199.91166,62.58624901373794,-8.165132529261175,-49.239908,-11.78789684608552,1.4071162458452466,0.440167,0.10550161603862068
0.6456000000000001,204.58159,60.95934926615173,-7.668223612593371,-49.650924,-11.39015109972414,1.3138925385211349,0.438381,0.10196803539310344
0.6570285714285715,209.630594,59.293359295746214,-7.184558925467171,-49.757162,-10.99032492210207,1.223876720480245,0.429617,0.09847688757517241
0.6684571428571429,214.508455,57.58744278969932,-6.714456278734538,-49.124842,-10.592614682565518,1.1370686489116786,0.399858,0.09514068192
0.6798857142857143,218.62735,55.84534071055449,-6.258221800545931,-48.787239,-10.198805540226207,1.0534441228845604,0.368426,0.09205059068689656
0.6913142857142858,222.437685,54.07134672150621,-5.81612930323298,-48.932836,-9.80576865926069,0.9729843458284171,0.365488,0.08909873796413793
0.7027428571428572,224.995741,52.27173862465656,-5.388410079964827,-48.788259,-9.412727675784827,0.8956862281553237,0.362348,0.08617133137655172
0.7141714285714286,228.237838,50.44880191243035,-4.975260981749454,-48.968024,-9.019545163746207,0.8215503556034995,0.375195,0.08320488256551724
0.7256000000000001,230.889976,48.60215818053518,-4.576871189154851,-48.899074,-8.625916946135172,0.7505790900691353,0.377397,0.08017790563862069
0.7370285714285716,233.821447,46.73305678816552,-4.193426379708325,-48.929872,-8.23244217849931,0.6827736070243985,0.389757,0.07709235934344828
0.7484571428571429,236.715759,44.84052369479173,-3.825111123586527,-49.085357,-7.8382181677903455,0.6181363027902183,0.401647,0.07390927787586207
0.7598857142857143,239.789693,42.92398590440276,-3.472116213253767,-49.183836,-7.442972696358622,0.5566742992593791,0.416093,0.0706202712
0.7713142857142857,243.189471,40.9814103978869,-3.1346429227469024,-50.461566,-7.042192017417932,0.49841396780369296,0.432259,0.06720814094896552
0.7827428571428572,248.136875,39.00526194969931,-2.81293101024268,-50.136879,-6.637578133804139,0.44339298882305356,0.444641,0.06368118867310345
0.7941714285714285,252.886151,36.99011278581517,-2.507272371996114,-50.325701,-6.233510708590345,0.3916245818376435,0.441387,0.06011752295172414
0.8056,257.457595,34.93747504328276,-2.2179746532241835,-50.488351,-5.828029638753104,0.34311223473025937,0.447011,0.05654432492689655
0.8170285714285714,261.757757,32.84915508958345,-1.9453321518897866,-50.678286,-5.421130447729655,0.29786733705828183,0.452001,0.052928436662068964
0.8284571428571429,266.279217,30.725353963812413,-1.6896310920281281,-50.889652,-5.012617196408276,0.25590208446475604,0.461193,0.049255507415172414
0.8398857142857143,270.538693,28.566235307867586,-1.451156230902309,-50.904136,-4.603195560811034,0.2172266223957195,0.46325,0.04553733391448276
0.8513142857142858,274.912349,26.372393599630346,-1.230189276565393,-50.865045,-4.1938728962648275,0.181844206366984,0.465601,0.0418014311337931
0.8627428571428573,278.60921,24.146091715431726,-1.0270004445947434,-50.66993,-3.7854922244027587,0.14975064955061618,0.466043,0.03805429471448275
0.8741714285714286,281.717649,21.89241844530207,-0.8418303816586057,-50.385279,-3.37904120448,0.12093440199389599,0.470346,0.03428807357793103
0.8856,284.369706,19.61557606298483,-0.6748823651259649,-49.979007,-2.9753691245131035,0.09537652541549062,0.473553,0.030491646703448273
0.8970285714285715,286.628955,17.31898006922483,-0.5263290331514499,-49.357663,-2.575830186968276,0.07304921894338068,0.473049,0.02668434817655172
0.908457142857143,288.613033,15.005317121627588,-0.39631848058796615,-48.538862,-2.182083611933793,0.053912561512210425,0.466383,0.02290588788413793
0.9198857142857144,290.166286,12.677426784794484,-0.2849765754415844,-47.314399,-1.796555185622069,0.03791020187955815,0.450711,0.01921727256827586
0.9313142857142859,290.160397,10.343312843238621,-0.19238557302041953,-45.630913,-1.4227227307365518,0.024962044080797136,0.428102,0.01568262607448276
0.9427428571428571,287.251018,8.020924310631724,-0.11852334468843895,-43.296484,-1.0650506070786208,0.014956048145529489,0.399816,0.012352682780689656
0.9541714285714286,280.404876,5.73777315628138,-0.06318491460082706,-39.995047,-0.7300463251531035,0.007736044484305063,0.362002,0.00928859824551724
0.9656,268.187069,3.5312985195641384,-0.025904069074253903,-35.386716,-0.4268556756248276,0.003082904850831342,0.304687,0.006607129108965517
0.9770285714285715,248.140725,1.4545925232827588,-0.005850471445369,-28.519419,-0.16982079333517244,0.0006830309425729143,0.201338,0.004571861660689655
0.9997714285714286,113.51208,0.0,-0.0,-13.702829,0.0,-0.0,0.935356,0.0
